freq,psd_x,psd_y,psd_z,psd_xyz
0.0,1.527e+01,5.965e+02,3.625e+02,9.743e+02
1.5,2.424e+01,3.499e+02,2.200e+02,5.941e+02
3.1,2.028e+01,3.438e+01,4.078e+01,9.544e+01
4.6,2.017e+01,3.609e+01,3.627e+02,4.189e+02
6.2,2.128e+01,3.180e+01,1.326e+03,1.379e+03
7.7,2.194e+01,2.906e+01,2.151e+03,2.202e+03
9.3,2.084e+01,3.157e+01,3.191e+03,3.243e+03
10.8,2.044e+01,4.270e+01,4.683e+03,4.746e+03
12.3,2.175e+01,5.088e+01,6.971e+03,7.044e+03
13.9,2.321e+01,7.409e+01,1.041e+04,1.050e+04
15.4,3.493e+01,1.534e+02,1.516e+04,1.535e+04
17.0,8.046e+01,2.935e+02,2.033e+04,2.071e+04
18.5,7.930e+01,4.368e+02,2.224e+04,2.276e+04
20.0,4.574e+01,5.646e+02,2.096e+04,2.157e+04
21.6,3.036e+01,8.555e+02,2.391e+04,2.480e+04
23.1,2.562e+01,1.313e+03,3.196e+04,3.330e+04
24.7,3.003e+01,2.374e+03,4.487e+04,4.727e+04
26.2,4.351e+01,4.975e+03,6.522e+04,7.024e+04
27.8,6.146e+01,1.016e+04,9.174e+04,1.020e+05
29.3,9.581e+01,1.860e+04,1.164e+05,1.351e+05
30.8,2.250e+02,3.753e+04,1.607e+05,1.984e+05
32.4,4.970e+02,7.216e+04,2.379e+05,3.105e+05
33.9,1.167e+03,1.487e+05,3.690e+05,5.189e+05
35.5,2.473e+03,2.845e+05,4.998e+05,7.868e+05
37.0,3.467e+03,4.415e+05,5.537e+05,9.987e+05
38.5,4.535e+03,6.259e+05,5.736e+05,1.204e+06
40.1,6.791e+03,8.757e+05,5.696e+05,1.452e+06
41.6,8.896e+03,1.091e+06,5.021e+05,1.602e+06
43.2,9.448e+03,1.249e+06,4.245e+05,1.683e+06
44.7,9.985e+03,1.310e+06,3.426e+05,1.663e+06
46.3,1.013e+04,1.206e+06,2.613e+05,1.477e+06
47.8,1.051e+04,1.139e+06,1.946e+05,1.344e+06
49.3,9.909e+03,1.053e+06,1.401e+05,1.203e+06
50.9,9.178e+03,9.244e+05,1.067e+05,1.040e+06
52.4,7.809e+03,7.598e+05,8.577e+04,8.534e+05
54.0,6.514e+03,6.157e+05,7.068e+04,6.929e+05
55.5,5.754e+03,4.853e+05,5.974e+04,5.508e+05
57.0,5.664e+03,4.163e+05,5.437e+04,4.764e+05
58.6,6.565e+03,4.067e+05,5.228e+04,4.656e+05
60.1,8.218e+03,3.873e+05,5.110e+04,4.466e+05
61.7,1.070e+04,3.473e+05,5.155e+04,4.096e+05
63.2,1.357e+04,2.862e+05,4.882e+04,3.486e+05
64.8,1.500e+04,2.184e+05,4.189e+04,2.753e+05
66.3,1.426e+04,1.757e+05,3.653e+04,2.265e+05
67.8,1.207e+04,1.657e+05,3.571e+04,2.134e+05
69.4,1.042e+04,1.679e+05,3.604e+04,2.144e+05
70.9,8.728e+03,1.732e+05,3.568e+04,2.176e+05
72.5,6.525e+03,1.780e+05,3.610e+04,2.206e+05
74.0,4.991e+03,1.763e+05,3.403e+04,2.153e+05
75.6,5.261e+03,1.607e+05,2.967e+04,1.956e+05
77.1,4.625e+03,1.423e+05,2.547e+04,1.724e+05
78.6,3.716e+03,1.362e+05,2.248e+04,1.624e+05
80.2,2.964e+03,1.374e+05,2.033e+04,1.607e+05
81.7,2.474e+03,1.392e+05,1.812e+04,1.598e+05
83.3,2.470e+03,1.437e+05,1.586e+04,1.620e+05
84.8,4.451e+03,1.412e+05,1.364e+04,1.593e+05
86.3,5.024e+03,1.403e+05,1.311e+04,1.584e+05
87.9,7.019e+03,1.275e+05,1.136e+04,1.459e+05
89.4,7.588e+03,1.142e+05,1.006e+04,1.319e+05
91.0,4.508e+03,9.771e+04,8.283e+03,1.105e+05
92.5,2.861e+03,7.138e+04,5.148e+03,7.939e+04
94.1,2.322e+03,5.549e+04,3.475e+03,6.128e+04
95.6,2.091e+03,4.124e+04,2.931e+03,4.626e+04
97.1,2.518e+03,3.186e+04,3.245e+03,3.763e+04
98.7,4.050e+03,2.750e+04,3.497e+03,3.505e+04
100.2,6.254e+03,2.945e+04,3.520e+03,3.922e+04
101.8,8.458e+03,3.473e+04,3.185e+03,4.638e+04
103.3,1.165e+04,5.265e+04,4.426e+03,6.873e+04
104.8,1.474e+04,8.097e+04,8.299e+03,1.040e+05
106.4,1.489e+04,1.002e+05,1.236e+04,1.275e+05
107.9,1.420e+04,1.085e+05,1.510e+04,1.378e+05
109.5,1.399e+04,1.105e+05,1.701e+04,1.415e+05
111.0,1.401e+04,1.090e+05,1.835e+04,1.413e+05
112.6,1.555e+04,1.043e+05,1.917e+04,1.390e+05
114.1,1.897e+04,1.001e+05,2.021e+04,1.392e+05
115.6,2.365e+04,9.729e+04,2.088e+04,1.418e+05
117.2,2.848e+04,9.931e+04,2.199e+04,1.498e+05
118.7,3.253e+04,1.031e+05,2.291e+04,1.586e+05
120.3,3.507e+04,1.076e+05,2.305e+04,1.657e+05
121.8,3.632e+04,1.120e+05,2.229e+04,1.706e+05
123.3,3.990e+04,1.168e+05,2.129e+04,1.780e+05
124.9,4.526e+04,1.187e+05,1.985e+04,1.838e+05
126.4,4.544e+04,1.168e+05,1.751e+04,1.798e+05
128.0,4.347e+04,1.160e+05,1.564e+04,1.751e+05
129.5,4.129e+04,1.118e+05,1.414e+04,1.673e+05
131.1,3.829e+04,1.045e+05,1.206e+04,1.549e+05
132.6,3.222e+04,8.181e+04,7.515e+03,1.215e+05
134.1,2.331e+04,4.974e+04,2.309e+03,7.536e+04
135.7,1.733e+04,4.064e+04,1.416e+03,5.939e+04
137.2,1.336e+04,3.680e+04,1.227e+03,5.139e+04
138.8,1.120e+04,3.389e+04,9.948e+02,4.609e+04
140.3,1.000e+04,3.323e+04,9.981e+02,4.423e+04
141.9,8.218e+03,3.146e+04,9.793e+02,4.066e+04
143.4,6.395e+03,2.855e+04,9.589e+02,3.590e+04
144.9,5.437e+03,2.573e+04,1.179e+03,3.235e+04
146.5,4.141e+03,2.336e+04,1.205e+03,2.870e+04
148.0,2.728e+03,2.126e+04,1.117e+03,2.511e+04
149.6,2.174e+03,1.990e+04,1.287e+03,2.336e+04
151.1,1.776e+03,1.769e+04,1.304e+03,2.077e+04
152.6,1.363e+03,1.533e+04,1.363e+03,1.806e+04
154.2,1.067e+03,1.330e+04,1.433e+03,1.580e+04
155.7,8.539e+02,1.214e+04,1.429e+03,1.442e+04
157.3,7.542e+02,1.168e+04,1.435e+03,1.387e+04
158.8,6.582e+02,1.130e+04,1.534e+03,1.349e+04
160.4,5.445e+02,1.084e+04,1.813e+03,1.320e+04
161.9,4.208e+02,1.018e+04,2.057e+03,1.265e+04
163.4,3.697e+02,9.640e+03,2.223e+03,1.223e+04
165.0,4.079e+02,9.388e+03,2.306e+03,1.210e+04
166.5,5.236e+02,9.812e+03,2.445e+03,1.278e+04
168.1,5.863e+02,1.016e+04,2.612e+03,1.336e+04
169.6,8.573e+02,1.109e+04,2.675e+03,1.462e+04
171.1,1.167e+03,1.169e+04,2.705e+03,1.557e+04
172.7,1.009e+03,1.153e+04,2.940e+03,1.548e+04
174.2,9.351e+02,1.219e+04,3.258e+03,1.639e+04
175.8,1.085e+03,1.348e+04,3.494e+03,1.806e+04
177.3,1.159e+03,1.403e+04,3.574e+03,1.876e+04
178.9,1.097e+03,1.315e+04,3.688e+03,1.794e+04
180.4,1.318e+03,1.193e+04,3.931e+03,1.718e+04
181.9,1.539e+03,1.088e+04,4.108e+03,1.653e+04
183.5,1.311e+03,1.005e+04,3.939e+03,1.530e+04
185.0,1.177e+03,9.524e+03,3.961e+03,1.466e+04
186.6,1.407e+03,9.672e+03,4.408e+03,1.549e+04
188.1,1.384e+03,9.794e+03,4.655e+03,1.583e+04
189.7,1.431e+03,9.903e+03,5.017e+03,1.635e+04
191.2,1.483e+03,9.698e+03,5.100e+03,1.628e+04
192.7,1.294e+03,8.650e+03,4.725e+03,1.467e+04
194.3,1.574e+03,8.114e+03,5.504e+03,1.519e+04
195.8,1.863e+03,7.455e+03,6.577e+03,1.589e+04
197.4,1.936e+03,6.605e+03,7.240e+03,1.578e+04
198.9,1.966e+03,6.039e+03,7.997e+03,1.600e+04
