freq,psd_x,psd_y,psd_z,psd_xyz
0.0,6.884e+02,1.699e+01,1.100e+01,7.164e+02
1.5,3.975e+02,2.719e+01,3.563e+01,4.603e+02
3.1,2.769e+01,2.408e+01,3.822e+01,9.000e+01
4.6,3.232e+02,2.654e+01,3.607e+01,3.858e+02
6.2,1.179e+03,2.679e+01,3.608e+01,1.242e+03
7.7,1.971e+03,2.926e+01,3.755e+01,2.038e+03
9.3,2.869e+03,3.001e+01,3.999e+01,2.939e+03
10.8,4.004e+03,3.312e+01,3.988e+01,4.077e+03
12.3,5.259e+03,3.368e+01,3.799e+01,5.331e+03
13.9,6.839e+03,4.248e+01,3.792e+01,6.920e+03
15.4,9.226e+03,4.988e+01,4.184e+01,9.318e+03
17.0,1.060e+04,5.273e+01,4.573e+01,1.070e+04
18.5,1.050e+04,6.104e+01,4.761e+01,1.060e+04
20.1,1.267e+04,6.802e+01,4.544e+01,1.278e+04
21.6,1.567e+04,7.377e+01,3.863e+01,1.579e+04
23.1,1.897e+04,7.372e+01,3.704e+01,1.908e+04
24.7,2.275e+04,8.325e+01,3.775e+01,2.287e+04
26.2,2.720e+04,9.867e+01,3.920e+01,2.734e+04
27.8,3.278e+04,1.229e+02,4.210e+01,3.294e+04
29.3,3.911e+04,1.485e+02,4.580e+01,3.930e+04
30.9,4.650e+04,1.837e+02,5.492e+01,4.674e+04
32.4,5.526e+04,3.096e+02,8.568e+01,5.566e+04
34.0,6.524e+04,4.947e+02,1.116e+02,6.585e+04
35.5,7.854e+04,6.267e+02,1.162e+02,7.929e+04
37.0,9.433e+04,8.466e+02,1.797e+02,9.536e+04
38.6,1.115e+05,1.242e+03,3.252e+02,1.131e+05
40.1,1.308e+05,1.675e+03,4.102e+02,1.329e+05
41.7,1.571e+05,2.425e+03,5.423e+02,1.601e+05
43.2,1.936e+05,3.547e+03,7.898e+02,1.979e+05
44.8,2.452e+05,4.863e+03,1.073e+03,2.511e+05
46.3,3.283e+05,7.721e+03,1.830e+03,3.379e+05
47.8,4.424e+05,1.310e+04,4.168e+03,4.597e+05
49.4,6.164e+05,1.443e+04,5.117e+03,6.360e+05
50.9,9.555e+05,1.482e+04,4.562e+03,9.748e+05
52.5,1.563e+06,2.481e+04,4.855e+03,1.593e+06
54.0,2.500e+06,5.222e+04,5.229e+03,2.557e+06
55.6,3.236e+06,7.680e+04,9.377e+03,3.322e+06
57.1,3.230e+06,6.676e+04,1.606e+04,3.312e+06
58.6,2.694e+06,4.412e+04,1.763e+04,2.756e+06
60.2,2.009e+06,3.248e+04,1.436e+04,2.056e+06
61.7,1.479e+06,2.564e+04,9.833e+03,1.515e+06
63.3,1.111e+06,1.741e+04,6.239e+03,1.135e+06
64.8,8.207e+05,8.547e+03,3.480e+03,8.328e+05
66.4,5.613e+05,3.366e+03,1.757e+03,5.664e+05
67.9,3.838e+05,2.469e+03,1.289e+03,3.876e+05
69.4,2.877e+05,2.470e+03,1.243e+03,2.915e+05
71.0,2.035e+05,2.820e+03,1.059e+03,2.073e+05
72.5,1.389e+05,5.038e+03,1.131e+03,1.450e+05
74.1,1.129e+05,7.959e+03,1.218e+03,1.221e+05
75.6,8.598e+04,6.547e+03,6.719e+02,9.320e+04
77.2,6.103e+04,3.339e+03,2.079e+02,6.457e+04
78.7,5.760e+04,2.571e+03,9.234e+01,6.027e+04
80.2,9.441e+04,4.689e+03,7.018e+01,9.917e+04
81.8,1.480e+05,6.681e+03,6.692e+01,1.547e+05
83.3,1.755e+05,6.878e+03,7.739e+01,1.825e+05
84.9,1.700e+05,8.543e+03,1.400e+02,1.786e+05
86.4,2.084e+05,8.963e+03,1.743e+02,2.176e+05
88.0,1.985e+05,2.788e+03,3.422e+02,2.016e+05
89.5,1.438e+05,5.757e+02,7.989e+02,1.452e+05
91.0,1.973e+05,1.954e+03,1.345e+03,2.006e+05
92.6,3.111e+05,7.696e+03,2.012e+03,3.208e+05
94.1,3.528e+05,1.084e+04,2.231e+03,3.659e+05
95.7,3.837e+05,9.375e+03,1.975e+03,3.950e+05
97.2,4.523e+05,7.204e+03,1.953e+03,4.614e+05
98.8,4.468e+05,5.361e+03,2.012e+03,4.541e+05
100.3,4.328e+05,4.382e+03,2.104e+03,4.393e+05
101.9,4.366e+05,1.701e+03,1.901e+03,4.402e+05
103.4,4.465e+05,7.362e+02,1.997e+03,4.493e+05
104.9,4.479e+05,7.197e+02,2.301e+03,4.509e+05
106.5,4.367e+05,9.299e+02,2.748e+03,4.403e+05
108.0,4.456e+05,1.143e+03,3.478e+03,4.502e+05
109.6,4.602e+05,1.334e+03,4.497e+03,4.660e+05
111.1,4.398e+05,1.527e+03,5.473e+03,4.468e+05
112.7,3.921e+05,1.940e+03,6.061e+03,4.001e+05
114.2,3.555e+05,2.710e+03,7.025e+03,3.652e+05
115.7,3.594e+05,3.508e+03,9.042e+03,3.720e+05
117.3,3.583e+05,3.384e+03,1.074e+04,3.724e+05
118.8,3.395e+05,2.767e+03,1.124e+04,3.536e+05
120.4,3.014e+05,2.403e+03,1.018e+04,3.140e+05
121.9,2.650e+05,4.664e+03,8.258e+03,2.780e+05
123.5,2.416e+05,1.106e+04,6.951e+03,2.596e+05
125.0,2.355e+05,1.933e+04,8.134e+03,2.629e+05
126.5,2.203e+05,2.222e+04,1.028e+04,2.528e+05
128.1,2.023e+05,2.131e+04,1.187e+04,2.354e+05
129.6,1.835e+05,1.767e+04,1.253e+04,2.137e+05
131.2,1.591e+05,1.233e+04,1.170e+04,1.832e+05
132.7,1.043e+05,6.640e+03,8.025e+03,1.190e+05
134.3,2.336e+04,2.136e+03,2.231e+03,2.773e+04
135.8,8.673e+03,1.221e+03,1.146e+03,1.104e+04
137.3,8.377e+03,7.686e+02,1.111e+03,1.026e+04
138.9,6.613e+03,4.706e+02,1.080e+03,8.163e+03
140.4,6.117e+03,6.450e+02,1.109e+03,7.871e+03
142.0,7.663e+03,8.987e+02,1.538e+03,1.010e+04
143.5,8.404e+03,1.282e+03,1.772e+03,1.146e+04
145.1,7.902e+03,1.325e+03,1.903e+03,1.113e+04
146.6,6.825e+03,1.043e+03,1.980e+03,9.848e+03
148.1,5.192e+03,9.870e+02,1.590e+03,7.768e+03
149.7,4.192e+03,7.349e+02,1.307e+03,6.234e+03
151.2,3.403e+03,5.742e+02,1.232e+03,5.209e+03
152.8,2.778e+03,6.571e+02,1.250e+03,4.685e+03
154.3,2.787e+03,8.248e+02,1.562e+03,5.174e+03
155.9,2.981e+03,1.187e+03,1.995e+03,6.163e+03
157.4,2.701e+03,1.748e+03,2.152e+03,6.601e+03
158.9,2.868e+03,2.762e+03,2.535e+03,8.165e+03
160.5,3.589e+03,4.042e+03,3.047e+03,1.068e+04
162.0,4.693e+03,5.363e+03,3.439e+03,1.350e+04
163.6,5.731e+03,6.258e+03,3.500e+03,1.549e+04
165.1,6.428e+03,6.258e+03,3.440e+03,1.613e+04
166.7,6.874e+03,5.986e+03,3.366e+03,1.623e+04
168.2,6.689e+03,5.677e+03,2.989e+03,1.535e+04
169.8,6.517e+03,5.034e+03,2.711e+03,1.426e+04
171.3,5.800e+03,3.835e+03,2.247e+03,1.188e+04
172.8,4.973e+03,2.799e+03,1.841e+03,9.613e+03
174.4,4.451e+03,2.390e+03,1.645e+03,8.486e+03
175.9,4.065e+03,2.012e+03,1.727e+03,7.805e+03
177.5,3.499e+03,1.889e+03,1.817e+03,7.205e+03
179.0,2.788e+03,2.123e+03,2.132e+03,7.043e+03
180.6,3.226e+03,3.567e+03,3.617e+03,1.041e+04
182.1,4.399e+03,5.518e+03,5.110e+03,1.503e+04
183.6,4.674e+03,6.886e+03,5.342e+03,1.690e+04
185.2,4.665e+03,7.862e+03,5.304e+03,1.783e+04
186.7,4.902e+03,8.816e+03,5.348e+03,1.907e+04
188.3,4.829e+03,8.945e+03,5.120e+03,1.889e+04
189.8,5.034e+03,9.283e+03,4.718e+03,1.904e+04
191.4,5.571e+03,9.039e+03,4.617e+03,1.923e+04
192.9,6.702e+03,9.378e+03,5.428e+03,2.151e+04
194.4,7.419e+03,1.004e+04,5.712e+03,2.317e+04
196.0,7.116e+03,1.014e+04,4.883e+03,2.214e+04
197.5,6.117e+03,9.585e+03,3.922e+03,1.962e+04
199.1,5.785e+03,9.351e+03,3.434e+03,1.857e+04
