freq,psd_x,psd_y,psd_z,psd_xyz
0.0,1.408e+03,4.025e+01,1.436e+01,1.463e+03
1.6,7.940e+02,3.716e+01,3.153e+01,8.627e+02
3.1,3.632e+01,1.942e+01,3.328e+01,8.902e+01
4.7,6.372e+02,1.844e+01,3.073e+01,6.863e+02
6.3,2.215e+03,2.073e+01,2.664e+01,2.262e+03
7.8,3.636e+03,2.679e+01,2.654e+01,3.689e+03
9.4,5.281e+03,2.490e+01,2.890e+01,5.335e+03
11.0,7.491e+03,2.620e+01,3.045e+01,7.548e+03
12.5,1.061e+04,3.774e+01,2.831e+01,1.068e+04
14.1,1.521e+04,4.354e+01,2.886e+01,1.528e+04
15.7,1.605e+04,4.379e+01,2.720e+01,1.612e+04
17.2,1.451e+04,4.120e+01,2.608e+01,1.458e+04
18.8,1.926e+04,5.055e+01,2.668e+01,1.934e+04
20.3,2.514e+04,6.199e+01,2.787e+01,2.523e+04
21.9,3.059e+04,7.215e+01,3.257e+01,3.069e+04
23.5,3.676e+04,8.082e+01,2.954e+01,3.687e+04
25.0,4.363e+04,1.033e+02,2.840e+01,4.377e+04
26.6,5.136e+04,1.185e+02,2.832e+01,5.151e+04
28.2,6.132e+04,1.423e+02,2.845e+01,6.149e+04
29.7,7.338e+04,1.788e+02,2.958e+01,7.359e+04
31.3,8.716e+04,2.496e+02,2.873e+01,8.744e+04
32.9,1.033e+05,3.198e+02,3.073e+01,1.037e+05
34.4,1.232e+05,3.351e+02,4.027e+01,1.235e+05
36.0,1.395e+05,3.200e+02,4.423e+01,1.399e+05
37.6,1.543e+05,3.469e+02,4.800e+01,1.547e+05
39.1,1.807e+05,4.396e+02,4.484e+01,1.811e+05
40.7,2.167e+05,5.282e+02,4.771e+01,2.173e+05
42.3,2.611e+05,6.119e+02,7.920e+01,2.618e+05
43.8,3.251e+05,7.552e+02,1.520e+02,3.260e+05
45.4,4.122e+05,9.317e+02,3.151e+02,4.134e+05
47.0,5.359e+05,1.121e+03,7.690e+02,5.378e+05
48.5,7.099e+05,3.057e+03,2.901e+03,7.159e+05
50.1,9.868e+05,1.406e+04,9.839e+03,1.011e+06
51.7,1.431e+06,2.955e+04,1.665e+04,1.477e+06
53.2,2.286e+06,4.971e+04,1.985e+04,2.356e+06
54.8,3.832e+06,9.659e+04,2.489e+04,3.954e+06
56.3,5.921e+06,1.897e+05,3.079e+04,6.142e+06
57.9,7.641e+06,2.723e+05,3.696e+04,7.950e+06
59.5,8.128e+06,2.717e+05,4.007e+04,8.440e+06
61.0,7.116e+06,2.204e+05,3.577e+04,7.372e+06
62.6,5.339e+06,1.566e+05,3.286e+04,5.528e+06
64.2,3.652e+06,8.952e+04,2.848e+04,3.770e+06
65.7,2.496e+06,4.177e+04,2.179e+04,2.560e+06
67.3,1.737e+06,1.683e+04,1.619e+04,1.770e+06
68.9,1.164e+06,5.011e+03,1.117e+04,1.180e+06
70.4,7.549e+05,1.684e+03,7.212e+03,7.638e+05
72.0,4.554e+05,3.869e+03,4.045e+03,4.633e+05
73.6,2.478e+05,5.908e+03,1.474e+03,2.552e+05
75.1,7.332e+04,2.459e+03,2.936e+02,7.607e+04
76.7,5.678e+03,3.477e+02,4.389e+01,6.069e+03
78.3,1.747e+03,4.160e+02,4.663e+01,2.210e+03
79.8,1.099e+03,4.504e+02,4.506e+01,1.594e+03
81.4,1.003e+03,5.461e+02,3.910e+01,1.588e+03
83.0,1.276e+03,1.005e+03,4.212e+01,2.323e+03
84.5,4.233e+03,1.062e+03,5.064e+01,5.345e+03
86.1,1.153e+04,8.084e+02,8.207e+01,1.242e+04
87.7,1.662e+04,6.482e+02,1.099e+02,1.738e+04
89.2,1.266e+04,5.766e+02,1.013e+02,1.333e+04
90.8,1.222e+04,9.434e+02,1.001e+02,1.327e+04
92.3,1.869e+04,7.203e+02,1.317e+02,1.954e+04
93.9,2.244e+04,6.620e+02,1.547e+02,2.326e+04
95.5,2.129e+04,8.055e+02,1.347e+02,2.223e+04
97.0,1.778e+04,9.014e+02,1.053e+02,1.879e+04
98.6,1.473e+04,4.387e+03,2.063e+02,1.932e+04
100.2,1.304e+04,1.102e+04,4.109e+02,2.446e+04
101.7,1.012e+04,2.087e+03,1.489e+02,1.235e+04
103.3,8.744e+03,4.835e+02,1.140e+02,9.342e+03
104.9,9.064e+03,3.822e+02,1.266e+02,9.573e+03
106.4,9.110e+03,3.322e+02,1.493e+02,9.592e+03
108.0,8.913e+03,3.460e+02,1.705e+02,9.430e+03
109.6,9.122e+03,3.500e+02,1.824e+02,9.655e+03
111.1,9.006e+03,3.820e+02,1.442e+02,9.532e+03
112.7,8.942e+03,5.366e+02,1.001e+02,9.578e+03
114.3,9.350e+03,7.800e+02,1.231e+02,1.025e+04
115.8,1.034e+04,8.254e+02,1.463e+02,1.131e+04
117.4,1.034e+04,8.420e+02,1.712e+02,1.135e+04
119.0,1.052e+04,1.177e+03,2.128e+02,1.191e+04
120.5,1.196e+04,1.106e+03,1.905e+02,1.326e+04
122.1,1.431e+04,7.475e+02,1.319e+02,1.519e+04
123.7,1.614e+04,6.814e+02,9.638e+01,1.692e+04
125.2,1.802e+04,9.898e+02,1.009e+02,1.911e+04
126.8,2.022e+04,1.702e+03,1.587e+02,2.208e+04
128.3,2.190e+04,2.117e+03,1.809e+02,2.420e+04
129.9,2.048e+04,2.274e+03,2.712e+02,2.302e+04
131.5,1.743e+04,2.247e+03,4.319e+02,2.011e+04
133.0,1.458e+04,2.164e+03,5.823e+02,1.733e+04
134.6,1.496e+04,1.978e+03,6.772e+02,1.762e+04
136.2,1.550e+04,1.854e+03,7.912e+02,1.815e+04
137.7,1.287e+04,1.688e+03,8.065e+02,1.537e+04
139.3,1.116e+04,1.421e+03,7.597e+02,1.334e+04
140.9,1.057e+04,1.182e+03,7.485e+02,1.250e+04
142.4,1.064e+04,1.235e+03,7.406e+02,1.262e+04
144.0,1.106e+04,1.699e+03,7.912e+02,1.355e+04
145.6,1.024e+04,2.474e+03,8.643e+02,1.358e+04
147.1,8.080e+03,2.713e+03,8.091e+02,1.160e+04
148.7,6.000e+03,1.753e+03,8.000e+02,8.553e+03
150.3,4.826e+03,9.288e+02,8.459e+02,6.600e+03
151.8,4.255e+03,5.893e+02,9.895e+02,5.834e+03
153.4,4.755e+03,5.303e+02,1.256e+03,6.541e+03
155.0,5.595e+03,7.917e+02,1.549e+03,7.936e+03
156.5,6.200e+03,9.844e+02,1.849e+03,9.033e+03
158.1,6.927e+03,1.281e+03,2.212e+03,1.042e+04
159.7,7.579e+03,1.916e+03,2.523e+03,1.202e+04
161.2,8.166e+03,3.053e+03,2.912e+03,1.413e+04
162.8,8.974e+03,4.989e+03,3.560e+03,1.752e+04
164.3,1.086e+04,8.564e+03,4.591e+03,2.402e+04
165.9,1.347e+04,1.425e+04,6.143e+03,3.386e+04
167.5,1.630e+04,1.994e+04,7.520e+03,4.376e+04
169.0,1.841e+04,2.256e+04,8.407e+03,4.937e+04
170.6,1.900e+04,2.330e+04,8.949e+03,5.125e+04
172.2,2.055e+04,2.332e+04,9.854e+03,5.372e+04
173.7,2.051e+04,2.265e+04,9.644e+03,5.281e+04
175.3,1.976e+04,2.206e+04,8.420e+03,5.025e+04
176.9,1.951e+04,2.185e+04,7.480e+03,4.884e+04
178.4,1.865e+04,2.074e+04,6.533e+03,4.593e+04
180.0,1.679e+04,1.773e+04,5.261e+03,3.978e+04
181.6,1.478e+04,1.490e+04,4.669e+03,3.435e+04
183.1,1.366e+04,1.432e+04,4.987e+03,3.297e+04
184.7,1.315e+04,1.555e+04,5.909e+03,3.461e+04
186.3,1.259e+04,1.851e+04,6.968e+03,3.807e+04
187.8,1.199e+04,2.071e+04,7.537e+03,4.024e+04
189.4,1.172e+04,2.110e+04,7.869e+03,4.069e+04
191.0,1.113e+04,2.071e+04,7.685e+03,3.952e+04
192.5,1.089e+04,2.196e+04,7.018e+03,3.987e+04
194.1,1.053e+04,2.255e+04,5.676e+03,3.875e+04
195.7,1.036e+04,2.091e+04,4.468e+03,3.573e+04
197.2,1.088e+04,1.966e+04,3.922e+03,3.446e+04
198.8,1.145e+04,1.875e+04,3.579e+03,3.378e+04
